D:\Omicron NanoScience\MATRIX\default\Results\10-Sep-2015\default_2015Sep10-191155_ESpHybrid_SPHERA-ESpHybrid_SPHERA_iXPS--1_1-Detector_Region.vms
survey scan
	Characteristic Energy eV	1253.6	Acquisition Time s	0.1
KE_survey	BE_survey	CPS_survey	Background_survey
153.6	1100	74576	74576
154.1	1099.5	74106.4	74106.4
154.6	1099	73957.6	73957.6
155.1	1098.5	73152.4	73152.4
155.6	1098	73538.1	73538.1
156.1	1097.5	74180.9	74180.9
156.6	1097	73904.8	73904.8
157.1	1096.5	73330	73330
157.6	1096	74290.5	74290.5
158.1	1095.5	73182.4	73182.4
158.6	1095	73409.3	73409.3
159.1	1094.5	71974.3	71974.3
159.6	1094	72850.5	72850.5
160.1	1093.5	72878.5	72878.5
160.6	1093	72759.6	72759.6
161.1	1092.5	74249.7	74249.7
161.6	1092	72785.3	72785.3
162.1	1091.5	71699.5	71699.5
162.6	1091	72973.2	72973.2
163.1	1090.5	73403.3	73403.3
163.6	1090	72662.7	72662.7
164.1	1089.5	72124	72124
164.6	1089	72772.3	72772.3
165.1	1088.5	72582.8	72582.8
165.6	1088	72017.7	72017.7
166.1	1087.5	71763.8	71763.8
166.6	1087	70788.1	70788.1
167.1	1086.5	72335.5	72335.5
167.6	1086	72525.2	72525.2
168.1	1085.5	72026.1	72026.1
168.6	1085	71827.1	71827.1
169.1	1084.5	72335	72335
169.6	1084	72626.1	72626.1
170.1	1083.5	72299.4	72299.4
170.6	1083	72206.5	72206.5
171.1	1082.5	71702.4	71702.4
171.6	1082	72072.4	72072.4
172.1	1081.5	72173.2	72173.2
172.6	1081	72215.2	72215.2
173.1	1080.5	72325.3	72325.3
173.6	1080	72309	72309
174.1	1079.5	71049.3	71049.3
174.6	1079	71229.1	71229.1
175.1	1078.5	71295.2	71295.2
175.6	1078	70077.1	70077.1
176.1	1077.5	71053.8	71053.8
176.6	1077	72363.1	72363.1
177.1	1076.5	70675.1	70675.1
177.6	1076	70896	70896
178.1	1075.5	71304.6	71304.6
178.6	1075	69977.7	69977.7
179.1	1074.5	70745.5	70745.5
179.6	1074	73133.7	73133.7
180.1	1073.5	72687.6	72687.6
180.6	1073	72188.7	72188.7
181.1	1072.5	71398.2	71398.2
181.6	1072	69231.4	69231.4
182.1	1071.5	71015.6	71015.6
182.6	1071	70615.1	70615.1
183.1	1070.5	70529.7	70529.7
183.6	1070	71199.6	71199.6
184.1	1069.5	70724.4	70724.4
184.6	1069	70961.7	70961.7
185.1	1068.5	69892.8	69892.8
185.6	1068	70427.6	70427.6
186.1	1067.5	70810.6	70810.6
186.6	1067	69818.6	69818.6
187.1	1066.5	68822.3	68822.3
187.6	1066	70557.4	70557.4
188.1	1065.5	71787.9	71787.9
188.6	1065	70578.2	70578.2
189.1	1064.5	70261.9	70261.9
189.6	1064	70903.3	70903.3
190.1	1063.5	70293	70293
190.6	1063	70003	70003
191.1	1062.5	69163.1	69163.1
191.6	1062	69532.6	69532.6
192.1	1061.5	70268.9	70268.9
192.6	1061	70223.5	70223.5
193.1	1060.5	71199.9	71199.9
193.6	1060	71154.5	71154.5
194.1	1059.5	68738.1	68738.1
194.6	1059	69699.2	69699.2
195.1	1058.5	69499.2	69499.2
195.6	1058	69397.8	69397.8
196.1	1057.5	70356.7	70356.7
196.6	1057	69166.7	69166.7
197.1	1056.5	69466.6	69466.6
197.6	1056	69039.9	69039.9
198.1	1055.5	69238.4	69238.4
198.6	1055	69964	69964
199.1	1054.5	70012.8	70012.8
199.6	1054	70079.5	70079.5
200.1	1053.5	69896.5	69896.5
200.6	1053	70391.6	70391.6
201.1	1052.5	69678.7	69678.7
201.6	1052	69379.9	69379.9
202.1	1051.5	70603.8	70603.8
202.6	1051	68814.2	68814.2
203.1	1050.5	69604.2	69604.2
203.6	1050	69978.2	69978.2
204.1	1049.5	69324.3	69324.3
204.6	1049	70022.6	70022.6
205.1	1048.5	69063	69063
205.6	1048	68668	68668
206.1	1047.5	68444.9	68444.9
206.6	1047	68147.3	68147.3
207.1	1046.5	69751	69751
207.6	1046	69569	69569
208.1	1045.5	68442.7	68442.7
208.6	1045	68419	68419
209.1	1044.5	68939.1	68939.1
209.6	1044	69233.2	69233.2
210.1	1043.5	69535.6	69535.6
210.6	1043	69347.9	69347.9
211.1	1042.5	69749.1	69749.1
211.6	1042	70166.6	70166.6
212.1	1041.5	69695.9	69695.9
212.6	1041	69341.6	69341.6
213.1	1040.5	70183.3	70183.3
213.6	1040	69790.2	69790.2
214.1	1039.5	70044.1	70044.1
214.6	1039	70302.2	70302.2
215.1	1038.5	70423.1	70423.1
215.6	1038	70333.1	70333.1
216.1	1037.5	70067.3	70067.3
216.6	1037	70049.1	70049.1
217.1	1036.5	69606.5	69606.5
217.6	1036	69643	69643
218.1	1035.5	68461.2	68461.2
218.6	1035	69218.3	69218.3
219.1	1034.5	69891.9	69891.9
219.6	1034	70136.7	70136.7
220.1	1033.5	70118.6	70118.6
220.6	1033	70292.6	70292.6
221.1	1032.5	71118.2	71118.2
221.6	1032	71016.3	71016.3
222.1	1031.5	69495.6	69495.6
222.6	1031	70468.1	70468.1
223.1	1030.5	70195.5	70195.5
223.6	1030	70584	70584
224.1	1029.5	69513.5	69513.5
224.6	1029	68683.6	68683.6
225.1	1028.5	70969.9	70969.9
225.6	1028	70489.7	70489.7
226.1	1027.5	71225.8	71225.8
226.6	1027	71383.4	71383.4
227.1	1026.5	70298.8	70298.8
227.6	1026	70741.1	70741.1
228.1	1025.5	70262.5	70262.5
228.6	1025	71639.6	71639.6
229.1	1024.5	71019.3	71019.3
229.6	1024	71012	71012
230.1	1023.5	71680.6	71680.6
230.6	1023	70305.9	70305.9
231.1	1022.5	70636.7	70636.7
231.6	1022	71672.3	71672.3
232.1	1021.5	71447.6	71447.6
232.6	1021	70968.6	70968.6
233.1	1020.5	71038.3	71038.3
233.6	1020	71834.1	71834.1
234.1	1019.5	71967.9	71967.9
234.6	1019	73782.6	73782.6
235.1	1018.5	72162	72162
235.6	1018	71769.6	71769.6
236.1	1017.5	72223.1	72223.1
236.6	1017	72717	72717
237.1	1016.5	72242.3	72242.3
237.6	1016	72152.7	72152.7
238.1	1015.5	72402.5	72402.5
238.6	1015	72660.1	72660.1
239.1	1014.5	73626	73626
239.6	1014	72277.8	72277.8
240.1	1013.5	72079.8	72079.8
240.6	1013	72247.4	72247.4
241.1	1012.5	72118.4	72118.4
241.6	1012	73077.8	73077.8
242.1	1011.5	74037.5	74037.5
242.6	1011	73585.9	73585.9
243.1	1010.5	73203.8	73203.8
243.6	1010	72610.9	72610.9
244.1	1009.5	71606.3	71606.3
244.6	1009	74079.8	74079.8
245.1	1008.5	73706.1	73706.1
245.6	1008	72547.8	72547.8
246.1	1007.5	73236.5	73236.5
246.6	1007	72442.3	72442.3
247.1	1006.5	70972.8	70972.8
247.6	1006	72361.4	72361.4
248.1	1005.5	72931.4	72931.4
248.6	1005	73320.3	73320.3
249.1	1004.5	73276.9	73276.9
249.6	1004	71559.1	71559.1
250.1	1003.5	73030.2	73030.2
250.6	1003	73614.5	73614.5
251.1	1002.5	73535	73535
251.6	1002	73289.9	73289.9
252.1	1001.5	73446	73446
252.6	1001	74062.4	74062.4
253.1	1000.5	74208.8	74208.8
253.6	1000	75413.8	75413.8
254.1	999.5	75482.9	75482.9
254.6	999	76833.7	76833.7
255.1	998.5	75436.1	75436.1
255.6	998	75745.5	75745.5
256.1	997.5	76108.7	76108.7
256.6	997	75508.1	75508.1
257.1	996.5	75475.8	75475.8
257.6	996	75116.8	75116.8
258.1	995.5	75590.4	75590.4
258.6	995	74394.1	74394.1
259.1	994.5	75682.1	75682.1
259.6	994	75923.1	75923.1
260.1	993.5	74984.3	74984.3
260.6	993	76104.2	76104.2
261.1	992.5	75426.2	75426.2
261.6	992	75035	75035
262.1	991.5	76210.5	76210.5
262.6	991	74972.3	74972.3
263.1	990.5	74504	74504
263.6	990	74820.9	74820.9
264.1	989.5	74294.3	74294.3
264.6	989	75159.6	75159.6
265.1	988.5	74336.6	74336.6
265.6	988	74038.2	74038.2
266.1	987.5	73837.6	73837.6
266.6	987	73314.6	73314.6
267.1	986.5	72903.3	72903.3
267.6	986	72766.4	72766.4
268.1	985.5	72759.5	72759.5
268.6	985	72749.9	72749.9
269.1	984.5	71116.2	71116.2
269.6	984	71437.9	71437.9
270.1	983.5	71323.4	71323.4
270.6	983	71022.4	71022.4
271.1	982.5	70217.2	70217.2
271.6	982	70387.9	70387.9
272.1	981.5	70150	70150
272.6	981	70369	70369
273.1	980.5	68881.7	68881.7
273.6	980	67725.1	67725.1
274.1	979.5	67756.9	67756.9
274.6	979	68052.5	68052.5
275.1	978.5	68751.6	68751.6
275.6	978	69900.2	69900.2
276.1	977.5	69566.1	69566.1
276.6	977	69857.6	69857.6
277.1	976.5	67960.3	67960.3
277.6	976	68116.3	68116.3
278.1	975.5	68466.8	68466.8
278.6	975	67884.5	67884.5
279.1	974.5	66997.6	66997.6
279.6	974	66867.1	66867.1
280.1	973.5	67501.8	67501.8
280.6	973	68497.2	68497.2
281.1	972.5	68886.7	68886.7
281.6	972	69399.2	69399.2
282.1	971.5	68318	68318
282.6	971	69075.1	69075.1
283.1	970.5	69373.8	69373.8
283.6	970	68237.7	68237.7
284.1	969.5	68073.8	68073.8
284.6	969	68314.3	68314.3
285.1	968.5	68533.6	68533.6
285.6	968	67726.7	67726.7
286.1	967.5	68778.7	68778.7
286.6	967	67712.4	67712.4
287.1	966.5	67984.1	67984.1
287.6	966	68926.5	68926.5
288.1	965.5	67463.3	67463.3
288.6	965	68767.7	68767.7
289.1	964.5	68619.7	68619.7
289.6	964	69551.1	69551.1
290.1	963.5	68923.3	68923.3
290.6	963	68819.3	68819.3
291.1	962.5	68875.3	68875.3
291.6	962	68492.4	68492.4
292.1	961.5	68451.6	68451.6
292.6	961	69994.3	69994.3
293.1	960.5	69161.7	69161.7
293.6	960	68926.7	68926.7
294.1	959.5	69382.1	69382.1
294.6	959	69716.9	69716.9
295.1	958.5	70259.1	70259.1
295.6	958	70315.6	70315.6
296.1	957.5	69744.8	69744.8
296.6	957	70243.1	70243.1
297.1	956.5	69934.3	69934.3
297.6	956	69774	69774
298.1	955.5	69746.3	69746.3
298.6	955	68909.8	68909.8
299.1	954.5	68136.1	68136.1
299.6	954	69946.3	69946.3
300.1	953.5	71042.1	71042.1
300.6	953	69963.3	69963.3
301.1	952.5	69904.5	69904.5
301.6	952	70093.1	70093.1
302.1	951.5	69001.6	69001.6
302.6	951	69073.3	69073.3
303.1	950.5	70317.3	70317.3
303.6	950	69958.1	69958.1
304.1	949.5	69655.4	69655.4
304.6	949	72010.2	72010.2
305.1	948.5	71048.8	71048.8
305.6	948	70550.1	70550.1
306.1	947.5	70853.8	70853.8
306.6	947	71295.3	71295.3
307.1	946.5	71399.2	71399.2
307.6	946	69426.4	69426.4
308.1	945.5	71013.8	71013.8
308.6	945	70383.4	70383.4
309.1	944.5	69605.2	69605.2
309.6	944	70008.4	70008.4
310.1	943.5	70494.7	70494.7
310.6	943	70290.8	70290.8
311.1	942.5	71182.5	71182.5
311.6	942	70644.5	70644.5
312.1	941.5	69968.7	69968.7
312.6	941	69856.1	69856.1
313.1	940.5	70797.3	70797.3
313.6	940	69799.8	69799.8
314.1	939.5	70758.2	70758.2
314.6	939	71272.3	71272.3
315.1	938.5	70421.3	70421.3
315.6	938	69961	69961
316.1	937.5	70990.7	70990.7
316.6	937	71671.8	71671.8
317.1	936.5	69826.4	69826.4
317.6	936	70165.1	70165.1
318.1	935.5	70379.1	70379.1
318.6	935	71856	71856
319.1	934.5	72043.3	72043.3
319.6	934	70332.7	70332.7
320.1	933.5	71390.9	71390.9
320.6	933	71405.9	71405.9
321.1	932.5	71060.4	71060.4
321.6	932	71275.4	71275.4
322.1	931.5	72532.9	72532.9
322.6	931	72538	72538
323.1	930.5	72110.7	72110.7
323.6	930	71581.2	71581.2
324.1	929.5	72588.7	72588.7
324.6	929	72854.7	72854.7
325.1	928.5	71286.6	71286.6
325.6	928	72210.2	72210.2
326.1	927.5	72281.2	72281.2
326.6	927	72750.9	72750.9
327.1	926.5	72383.6	72383.6
327.6	926	70782.3	70782.3
328.1	925.5	70842.4	70842.4
328.6	925	72181.3	72181.3
329.1	924.5	72976.9	72976.9
329.6	924	71542.4	71542.4
330.1	923.5	72323.4	72323.4
330.6	923	72688.2	72688.2
331.1	922.5	72376.6	72376.6
331.6	922	73640.8	73640.8
332.1	921.5	73094	73094
332.6	921	73044.2	73044.2
333.1	920.5	73427.6	73427.6
333.6	920	71706.5	71706.5
334.1	919.5	71222.9	71222.9
334.6	919	73116	73116
335.1	918.5	73151.4	73151.4
335.6	918	73784.6	73784.6
336.1	917.5	72068.7	72068.7
336.6	917	72019.3	72019.3
337.1	916.5	72926.4	72926.4
337.6	916	72416.8	72416.8
338.1	915.5	73195.7	73195.7
338.6	915	72898.9	72898.9
339.1	914.5	73202.2	73202.2
339.6	914	72061.8	72061.8
340.1	913.5	73007	73007
340.6	913	73092	73092
341.1	912.5	73101.3	73101.3
341.6	912	72835.8	72835.8
342.1	911.5	73038.3	73038.3
342.6	911	74067.8	74067.8
343.1	910.5	74042.4	74042.4
343.6	910	73410.4	73410.4
344.1	909.5	73303.6	73303.6
344.6	909	73030	73030
345.1	908.5	74048	74048
345.6	908	74360.5	74360.5
346.1	907.5	74432.8	74432.8
346.6	907	75381.7	75381.7
347.1	906.5	73955	73955
347.6	906	75472.9	75472.9
348.1	905.5	74765.8	74765.8
348.6	905	75551.8	75551.8
349.1	904.5	75809.6	75809.6
349.6	904	74950	74950
350.1	903.5	75135.9	75135.9
350.6	903	75330.1	75330.1
351.1	902.5	74330.6	74330.6
351.6	902	75469	75469
352.1	901.5	75451.7	75451.7
352.6	901	75382.2	75382.2
353.1	900.5	74922.5	74922.5
353.6	900	73292.9	73292.9
354.1	899.5	73214.6	73214.6
354.6	899	73520.4	73520.4
355.1	898.5	74571.3	74571.3
355.6	898	74811.7	74811.7
356.1	897.5	74718.6	74718.6
356.6	897	75459.5	75459.5
357.1	896.5	75393.3	75393.3
357.6	896	74527.5	74527.5
358.1	895.5	74166	74166
358.6	895	74511.4	74511.4
359.1	894.5	74237.1	74237.1
359.6	894	74453	74453
360.1	893.5	72831.1	72831.1
360.6	893	73649.8	73649.8
361.1	892.5	73301	73301
361.6	892	73257.4	73257.4
362.1	891.5	74515.2	74515.2
362.6	891	75047.4	75047.4
363.1	890.5	73311.8	73311.8
363.6	890	72120.2	72120.2
364.1	889.5	73378.8	73378.8
364.6	889	74922.1	74922.1
365.1	888.5	74343.3	74343.3
365.6	888	73949.8	73949.8
366.1	887.5	72890.7	72890.7
366.6	887	75121.4	75121.4
367.1	886.5	74696.5	74696.5
367.6	886	75617.4	75617.4
368.1	885.5	73690.9	73690.9
368.6	885	75002.7	75002.7
369.1	884.5	74971.8	74971.8
369.6	884	74419.5	74419.5
370.1	883.5	74197.4	74197.4
370.6	883	74920.9	74920.9
371.1	882.5	74550.4	74550.4
371.6	882	74415.5	74415.5
372.1	881.5	75034.6	75034.6
372.6	881	75850.1	75850.1
373.1	880.5	75707.6	75707.6
373.6	880	78244.1	78244.1
374.1	879.5	77835.1	77835.1
374.6	879	79035	79035
375.1	878.5	80428.5	80428.5
375.6	878	79697.9	79697.9
376.1	877.5	80392	80392
376.6	877	80251.2	80251.2
377.1	876.5	80338	80338
377.6	876	80177.5	80177.5
378.1	875.5	79188.1	79188.1
378.6	875	78495.1	78495.1
379.1	874.5	79180.6	79180.6
379.6	874	78511.4	78511.4
380.1	873.5	78569.5	78569.5
380.6	873	77906.3	77906.3
381.1	872.5	77208.7	77208.7
381.6	872	74794.2	74794.2
382.1	871.5	73577.5	73577.5
382.6	871	73780.1	73780.1
383.1	870.5	73812.4	73812.4
383.6	870	70319.2	70319.2
384.1	869.5	71268.9	71268.9
384.6	869	71044.9	71044.9
385.1	868.5	69476.1	69476.1
385.6	868	69072.1	69072.1
386.1	867.5	69515.8	69515.8
386.6	867	68197	68197
387.1	866.5	66891.3	66891.3
387.6	866	66494.3	66494.3
388.1	865.5	66786.6	66786.6
388.6	865	67846.1	67846.1
389.1	864.5	67688.3	67688.3
389.6	864	67120.5	67120.5
390.1	863.5	65962.8	65962.8
390.6	863	66300.5	66300.5
391.1	862.5	67014.5	67014.5
391.6	862	67108.7	67108.7
392.1	861.5	67330.4	67330.4
392.6	861	66574.8	66574.8
393.1	860.5	66162.1	66162.1
393.6	860	66247.1	66247.1
394.1	859.5	66715.6	66715.6
394.6	859	65621.1	65621.1
395.1	858.5	66430	66430
395.6	858	67122.8	67122.8
396.1	857.5	66107.3	66107.3
396.6	857	67067.6	67067.6
397.1	856.5	65954.4	65954.4
397.6	856	66188.9	66188.9
398.1	855.5	65911.5	65911.5
398.6	855	65929.3	65929.3
399.1	854.5	65308.7	65308.7
399.6	854	65429.9	65429.9
400.1	853.5	64824.6	64824.6
400.6	853	65208.1	65208.1
401.1	852.5	65226.9	65226.9
401.6	852	65960	65960
402.1	851.5	65595.6	65595.6
402.6	851	64630	64630
403.1	850.5	65741.7	65741.7
403.6	850	65866.5	65866.5
404.1	849.5	66874.4	66874.4
404.6	849	65742.4	65742.4
405.1	848.5	65351.1	65351.1
405.6	848	66361.5	66361.5
406.1	847.5	66871.5	66871.5
406.6	847	67791.6	67791.6
407.1	846.5	67938.1	67938.1
407.6	846	69134	69134
408.1	845.5	69206	69206
408.6	845	70178.9	70178.9
409.1	844.5	70124.1	70124.1
409.6	844	70885	70885
410.1	843.5	68936.1	68936.1
410.6	843	69370.5	69370.5
411.1	842.5	69177.3	69177.3
411.6	842	69546.4	69546.4
412.1	841.5	69147.9	69147.9
412.6	841	69106	69106
413.1	840.5	68860.5	68860.5
413.6	840	68680.6	68680.6
414.1	839.5	66805.3	66805.3
414.6	839	66918.2	66918.2
415.1	838.5	68180.2	68180.2
415.6	838	67535.7	67535.7
416.1	837.5	66687.8	66687.8
416.6	837	65771.1	65771.1
417.1	836.5	66479.6	66479.6
417.6	836	65844.9	65844.9
418.1	835.5	65865.5	65865.5
418.6	835	64255.8	64255.8
419.1	834.5	64694.1	64694.1
419.6	834	64209.4	64209.4
420.1	833.5	64007.4	64007.4
420.6	833	65301.4	65301.4
421.1	832.5	63889	63889
421.6	832	64521.2	64521.2
422.1	831.5	64764.1	64764.1
422.6	831	63266.1	63266.1
423.1	830.5	64269.7	64269.7
423.6	830	63815.7	63815.7
424.1	829.5	64150.9	64150.9
424.6	829	64830.2	64830.2
425.1	828.5	63783.7	63783.7
425.6	828	64539.5	64539.5
426.1	827.5	64552.1	64552.1
426.6	827	64833.8	64833.8
427.1	826.5	64550.3	64550.3
427.6	826	64236.8	64236.8
428.1	825.5	64343.9	64343.9
428.6	825	64884.9	64884.9
429.1	824.5	64427.4	64427.4
429.6	824	63918.9	63918.9
430.1	823.5	64066.5	64066.5
430.6	823	63572.5	63572.5
431.1	822.5	62887.6	62887.6
431.6	822	64055.9	64055.9
432.1	821.5	64282.6	64282.6
432.6	821	63779.6	63779.6
433.1	820.5	65276.1	65276.1
433.6	820	65391.3	65391.3
434.1	819.5	64465.3	64465.3
434.6	819	66107.8	66107.8
435.1	818.5	64271.2	64271.2
435.6	818	63718.9	63718.9
436.1	817.5	63109.1	63109.1
436.6	817	65451	65451
437.1	816.5	65905.4	65905.4
437.6	816	64660.7	64660.7
438.1	815.5	65131.8	65131.8
438.6	815	65408.5	65408.5
439.1	814.5	67043.4	67043.4
439.6	814	66715.3	66715.3
440.1	813.5	66713.7	66713.7
440.6	813	66158.5	66158.5
441.1	812.5	65853.1	65853.1
441.6	812	65973.4	65973.4
442.1	811.5	65655.7	65655.7
442.6	811	66118.1	66118.1
443.1	810.5	65552.7	65552.7
443.6	810	64848.7	64848.7
444.1	809.5	64942.8	64942.8
444.6	809	65168.8	65168.8
445.1	808.5	64463.3	64463.3
445.6	808	65570	65570
446.1	807.5	66955.6	66955.6
446.6	807	65475.2	65475.2
447.1	806.5	67277	67277
447.6	806	65830.7	65830.7
448.1	805.5	66651	66651
448.6	805	67209.6	67209.6
449.1	804.5	65379.5	65379.5
449.6	804	65338.2	65338.2
450.1	803.5	65110.8	65110.8
450.6	803	65198.2	65198.2
451.1	802.5	66128.6	66128.6
451.6	802	66119.8	66119.8
452.1	801.5	65139.5	65139.5
452.6	801	66825.9	66825.9
453.1	800.5	66853.3	66853.3
453.6	800	65918.5	65918.5
454.1	799.5	65681.3	65681.3
454.6	799	67157.7	67157.7
455.1	798.5	66094.1	66094.1
455.6	798	67019	67019
456.1	797.5	65433.2	65433.2
456.6	797	66593.2	66593.2
457.1	796.5	67039.7	67039.7
457.6	796	67280	67280
458.1	795.5	66575.5	66575.5
458.6	795	67144.9	67144.9
459.1	794.5	67215.4	67215.4
459.6	794	67436.2	67436.2
460.1	793.5	66464.7	66464.7
460.6	793	66612.9	66612.9
461.1	792.5	67903	67903
461.6	792	67618.4	67618.4
462.1	791.5	66407.5	66407.5
462.6	791	67526.6	67526.6
463.1	790.5	66993.8	66993.8
463.6	790	68901.3	68901.3
464.1	789.5	67169.3	67169.3
464.6	789	66396.2	66396.2
465.1	788.5	67614.8	67614.8
465.6	788	66957.7	66957.7
466.1	787.5	67592.9	67592.9
466.6	787	67708.3	67708.3
467.1	786.5	66822.4	66822.4
467.6	786	67155.5	67155.5
468.1	785.5	67307	67307
468.6	785	68545.8	68545.8
469.1	784.5	67779.7	67779.7
469.6	784	67509.6	67509.6
470.1	783.5	68221.8	68221.8
470.6	783	68807.9	68807.9
471.1	782.5	68094.8	68094.8
471.6	782	68334.8	68334.8
472.1	781.5	68478.9	68478.9
472.6	781	67682.1	67682.1
473.1	780.5	67229.3	67229.3
473.6	780	67650.1	67650.1
474.1	779.5	69265.2	69265.2
474.6	779	70195.3	70195.3
475.1	778.5	67894.3	67894.3
475.6	778	69098.1	69098.1
476.1	777.5	68856.1	68856.1
476.6	777	68392.8	68392.8
477.1	776.5	68640.9	68640.9
477.6	776	68721.2	68721.2
478.1	775.5	67479	67479
478.6	775	67809.5	67809.5
479.1	774.5	68295.1	68295.1
479.6	774	68727.2	68727.2
480.1	773.5	69476.5	69476.5
480.6	773	69444.8	69444.8
481.1	772.5	68498.1	68498.1
481.6	772	68227.4	68227.4
482.1	771.5	69828.5	69828.5
482.6	771	69707.5	69707.5
483.1	770.5	69533	69533
483.6	770	68871	68871
484.1	769.5	69372.1	69372.1
484.6	769	70385.9	70385.9
485.1	768.5	69450.4	69450.4
485.6	768	70456.3	70456.3
486.1	767.5	69586	69586
486.6	767	70337.5	70337.5
487.1	766.5	71934	71934
487.6	766	71933.6	71933.6
488.1	765.5	73030.8	73030.8
488.6	765	73918.8	73918.8
489.1	764.5	73169.5	73169.5
489.6	764	72676.2	72676.2
490.1	763.5	71803.3	71803.3
490.6	763	70046.6	70046.6
491.1	762.5	70475.1	70475.1
491.6	762	69848.2	69848.2
492.1	761.5	69238.3	69238.3
492.6	761	68072.2	68072.2
493.1	760.5	67797.9	67797.9
493.6	760	67633.4	67633.4
494.1	759.5	68270.3	68270.3
494.6	759	68545.3	68545.3
495.1	758.5	67000.8	67000.8
495.6	758	66663	66663
496.1	757.5	66660.1	66660.1
496.6	757	67026.3	67026.3
497.1	756.5	66567.5	66567.5
497.6	756	65750.6	65750.6
498.1	755.5	67136.1	67136.1
498.6	755	65401.8	65401.8
499.1	754.5	64949.6	64949.6
499.6	754	64751	64751
500.1	753.5	65933	65933
500.6	753	65309.1	65309.1
501.1	752.5	65175.8	65175.8
501.6	752	65209.9	65209.9
502.1	751.5	64971.1	64971.1
502.6	751	66205.9	66205.9
503.1	750.5	67401.4	67401.4
503.6	750	68348.4	68348.4
504.1	749.5	69009.9	69009.9
504.6	749	70543.3	70543.3
505.1	748.5	72652.7	72652.7
505.6	748	75364.4	75364.4
506.1	747.5	78033.2	78033.2
506.6	747	79590	79590
507.1	746.5	82887.8	82887.8
507.6	746	88334.9	88334.9
508.1	745.5	91388.3	91388.3
508.6	745	92450	92450
509.1	744.5	88510.1	88510.1
509.6	744	83494.1	83494.1
510.1	743.5	78043.4	78043.4
510.6	743	73718.9	73718.9
511.1	742.5	71072.1	71072.1
511.6	742	69611.4	69611.4
512.1	741.5	68551.3	68551.3
512.6	741	68933.1	68933.1
513.1	740.5	67427.2	67427.2
513.6	740	64872.8	64872.8
514.1	739.5	64638.5	64638.5
514.6	739	63642.3	63642.3
515.1	738.5	62851.3	62851.3
515.6	738	61518.5	61518.5
516.1	737.5	60320.6	60320.6
516.6	737	59914	59914
517.1	736.5	58945.5	58945.5
517.6	736	58008.3	58008.3
518.1	735.5	57523.8	57523.8
518.6	735	56765.8	56765.8
519.1	734.5	56245	56245
519.6	734	55526.7	55526.7
520.1	733.5	55191.6	55191.6
520.6	733	56068	56068
521.1	732.5	56692.9	56692.9
521.6	732	55356.5	55356.5
522.1	731.5	54986.8	54986.8
522.6	731	55715.3	55715.3
523.1	730.5	55030	55030
523.6	730	55143.5	55143.5
524.1	729.5	54804.2	54804.2
524.6	729	55884.8	55884.8
525.1	728.5	56158.2	56158.2
525.6	728	56466.8	56466.8
526.1	727.5	56566.4	56566.4
526.6	727	55900.5	55900.5
527.1	726.5	55671.5	55671.5
527.6	726	55048	55048
528.1	725.5	56011.3	56011.3
528.6	725	55267.9	55267.9
529.1	724.5	55188.3	55188.3
529.6	724	55921.5	55921.5
530.1	723.5	55270.6	55270.6
530.6	723	55895.8	55895.8
531.1	722.5	55742.1	55742.1
531.6	722	55819.8	55819.8
532.1	721.5	55721	55721
532.6	721	56470.4	56470.4
533.1	720.5	56103.2	56103.2
533.6	720	56816	56816
534.1	719.5	55524	55524
534.6	719	55936.2	55936.2
535.1	718.5	56893.6	56893.6
535.6	718	56969.8	56969.8
536.1	717.5	57014	57014
536.6	717	57282.1	57282.1
537.1	716.5	57043.6	57043.6
537.6	716	57284	57284
538.1	715.5	56918.8	56918.8
538.6	715	55844.1	55844.1
539.1	714.5	55967.2	55967.2
539.6	714	56079.2	56079.2
540.1	713.5	55665.6	55665.6
540.6	713	55657.8	55657.8
541.1	712.5	55196.3	55196.3
541.6	712	56073.4	56073.4
542.1	711.5	56220	56220
542.6	711	56554.1	56554.1
543.1	710.5	55804.5	55804.5
543.6	710	55172.2	55172.2
544.1	709.5	55868.2	55868.2
544.6	709	56131.5	56131.5
545.1	708.5	56138.9	56138.9
545.6	708	55240.8	55240.8
546.1	707.5	55540.2	55540.2
546.6	707	56012.9	56012.9
547.1	706.5	56256.6	56256.6
547.6	706	56379.1	56379.1
548.1	705.5	56291.5	56291.5
548.6	705	54769.8	54769.8
549.1	704.5	54644.3	54644.3
549.6	704	55075.9	55075.9
550.1	703.5	54949.7	54949.7
550.6	703	54610.8	54610.8
551.1	702.5	55035.8	55035.8
551.6	702	55502.2	55502.2
552.1	701.5	54520.4	54520.4
552.6	701	54050.7	54050.7
553.1	700.5	55108.7	55108.7
553.6	700	54094.9	54094.9
554.1	699.5	53668.1	53668.1
554.6	699	53365.7	53365.7
555.1	698.5	52314.2	52314.2
555.6	698	52902.8	52902.8
556.1	697.5	52911	52911
556.6	697	53956.1	53956.1
557.1	696.5	52179.1	52179.1
557.6	696	52483.2	52483.2
558.1	695.5	53558.3	53558.3
558.6	695	53977.4	53977.4
559.1	694.5	54186.4	54186.4
559.6	694	54773.9	54773.9
560.1	693.5	55786.1	55786.1
560.6	693	58724.2	58724.2
561.1	692.5	67557.2	67557.2
561.6	692	79267.7	79267.7
562.1	691.5	92856.4	92856.4
562.6	691	102858	102858
563.1	690.5	101385	101385
563.6	690	88559.5	88559.5
564.1	689.5	72505.1	72505.1
564.6	689	62583.1	62583.1
565.1	688.5	57734.1	57734.1
565.6	688	55430.5	55430.5
566.1	687.5	54351.1	54351.1
566.6	687	53046.2	53046.2
567.1	686.5	52977	52977
567.6	686	53145.3	53145.3
568.1	685.5	52486.1	52486.1
568.6	685	53786.2	53786.2
569.1	684.5	53381.5	53381.5
569.6	684	55036.5	55036.5
570.1	683.5	55507.5	55507.5
570.6	683	56788.4	56788.4
571.1	682.5	57351.4	57351.4
571.6	682	57568	57568
572.1	681.5	56704.6	56704.6
572.6	681	55666	55666
573.1	680.5	54197.6	54197.6
573.6	680	55009.5	55009.5
574.1	679.5	54904.6	54904.6
574.6	679	53243.3	53243.3
575.1	678.5	53259.9	53259.9
575.6	678	51979.7	51979.7
576.1	677.5	52385.7	52385.7
576.6	677	52314.7	52314.7
577.1	676.5	52836.5	52836.5
577.6	676	52495.4	52495.4
578.1	675.5	52676.2	52676.2
578.6	675	52556.5	52556.5
579.1	674.5	52964	52964
579.6	674	53185.7	53185.7
580.1	673.5	53509.5	53509.5
580.6	673	52859.2	52859.2
581.1	672.5	52453.7	52453.7
581.6	672	53283	53283
582.1	671.5	53383.2	53383.2
582.6	671	52004.6	52004.6
583.1	670.5	51852.7	51852.7
583.6	670	52654.3	52654.3
584.1	669.5	53450.6	53450.6
584.6	669	52157.4	52157.4
585.1	668.5	52965.6	52965.6
585.6	668	52679.3	52679.3
586.1	667.5	52645.8	52645.8
586.6	667	52514.6	52514.6
587.1	666.5	53450.8	53450.8
587.6	666	52594.5	52594.5
588.1	665.5	53104.5	53104.5
588.6	665	52640	52640
589.1	664.5	52846.4	52846.4
589.6	664	52479	52479
590.1	663.5	51844.5	51844.5
590.6	663	52681.4	52681.4
591.1	662.5	53658.5	53658.5
591.6	662	52632.8	52632.8
592.1	661.5	53906.5	53906.5
592.6	661	53980.1	53980.1
593.1	660.5	52454	52454
593.6	660	52324.4	52324.4
594.1	659.5	52546	52546
594.6	659	53135.3	53135.3
595.1	658.5	52529.7	52529.7
595.6	658	53064.2	53064.2
596.1	657.5	53102.5	53102.5
596.6	657	52033.7	52033.7
597.1	656.5	53847.8	53847.8
597.6	656	52700.5	52700.5
598.1	655.5	53116.3	53116.3
598.6	655	53193	53193
599.1	654.5	52801.8	52801.8
599.6	654	53193.6	53193.6
600.1	653.5	54374.3	54374.3
600.6	653	53793.7	53793.7
601.1	652.5	53916.3	53916.3
601.6	652	55346.5	55346.5
602.1	651.5	54383.1	54383.1
602.6	651	53658	53658
603.1	650.5	54236.7	54236.7
603.6	650	54546	54546
604.1	649.5	54290	54290
604.6	649	54782.5	54782.5
605.1	648.5	54179.2	54179.2
605.6	648	54670.5	54670.5
606.1	647.5	54030.3	54030.3
606.6	647	54614.9	54614.9
607.1	646.5	54295.9	54295.9
607.6	646	53373.7	53373.7
608.1	645.5	53838.5	53838.5
608.6	645	53712.9	53712.9
609.1	644.5	53481.7	53481.7
609.6	644	53528.9	53528.9
610.1	643.5	54594.2	54594.2
610.6	643	55171.9	55171.9
611.1	642.5	53895	53895
611.6	642	54005	54005
612.1	641.5	53635.7	53635.7
612.6	641	53951.6	53951.6
613.1	640.5	55339.7	55339.7
613.6	640	54234.2	54234.2
614.1	639.5	55420.7	55420.7
614.6	639	54480.6	54480.6
615.1	638.5	54232.4	54232.4
615.6	638	52667	52667
616.1	637.5	53243.8	53243.8
616.6	637	53586.9	53586.9
617.1	636.5	54426	54426
617.6	636	54085.4	54085.4
618.1	635.5	54475.4	54475.4
618.6	635	54994.2	54994.2
619.1	634.5	55969.4	55969.4
619.6	634	55856.2	55856.2
620.1	633.5	55759.9	55759.9
620.6	633	56452.7	56452.7
621.1	632.5	55173.5	55173.5
621.6	632	56766.1	56766.1
622.1	631.5	57798.2	57798.2
622.6	631	57273.2	57273.2
623.1	630.5	56562.6	56562.6
623.6	630	56797.4	56797.4
624.1	629.5	55365.4	55365.4
624.6	629	56861.1	56861.1
625.1	628.5	57592.4	57592.4
625.6	628	56491.7	56491.7
626.1	627.5	57538.3	57538.3
626.6	627	57124.5	57124.5
627.1	626.5	55820.9	55820.9
627.6	626	56787.8	56787.8
628.1	625.5	56164.5	56164.5
628.6	625	55776.1	55776.1
629.1	624.5	55733.5	55733.5
629.6	624	55739.4	55739.4
630.1	623.5	55889.2	55889.2
630.6	623	56063.3	56063.3
631.1	622.5	56063.2	56063.2
631.6	622	56185.6	56185.6
632.1	621.5	55954.1	55954.1
632.6	621	54706.5	54706.5
633.1	620.5	54294.2	54294.2
633.6	620	55397.8	55397.8
634.1	619.5	55461	55461
634.6	619	55279.3	55279.3
635.1	618.5	54195.2	54195.2
635.6	618	53404.9	53404.9
636.1	617.5	54213.3	54213.3
636.6	617	54831.9	54831.9
637.1	616.5	54483.3	54483.3
637.6	616	54337.7	54337.7
638.1	615.5	53188.7	53188.7
638.6	615	53323.7	53323.7
639.1	614.5	53925.5	53925.5
639.6	614	55555.7	55555.7
640.1	613.5	55522.4	55522.4
640.6	613	55463.6	55463.6
641.1	612.5	54846.9	54846.9
641.6	612	55300.1	55300.1
642.1	611.5	54882.7	54882.7
642.6	611	54299.8	54299.8
643.1	610.5	54657.7	54657.7
643.6	610	56032.7	56032.7
644.1	609.5	55646.1	55646.1
644.6	609	55189.7	55189.7
645.1	608.5	57175.5	57175.5
645.6	608	56789.8	56789.8
646.1	607.5	58582.1	58582.1
646.6	607	59770.6	59770.6
647.1	606.5	60369	60369
647.6	606	61382.3	61382.3
648.1	605.5	62870	62870
648.6	605	64263.7	64263.7
649.1	604.5	65886.4	65886.4
649.6	604	67318.1	67318.1
650.1	603.5	67173.6	67173.6
650.6	603	67677.2	67677.2
651.1	602.5	67110.6	67110.6
651.6	602	66489.9	66489.9
652.1	601.5	65719.7	65719.7
652.6	601	63946.7	63946.7
653.1	600.5	63207.4	63207.4
653.6	600	62239.6	62239.6
654.1	599.5	59738.8	59738.8
654.6	599	58691.8	58691.8
655.1	598.5	59125.2	59125.2
655.6	598	57377.5	57377.5
656.1	597.5	56840.4	56840.4
656.6	597	55028.9	55028.9
657.1	596.5	54886	54886
657.6	596	55129.6	55129.6
658.1	595.5	54272	54272
658.6	595	53093.9	53093.9
659.1	594.5	52378.8	52378.8
659.6	594	51820.9	51820.9
660.1	593.5	52388.9	52388.9
660.6	593	51699.5	51699.5
661.1	592.5	50779.8	50779.8
661.6	592	49958.1	49958.1
662.1	591.5	49892	49892
662.6	591	49908.2	49908.2
663.1	590.5	50282.4	50282.4
663.6	590	50477.1	50477.1
664.1	589.5	49855.1	49855.1
664.6	589	48826.1	48826.1
665.1	588.5	49321.8	49321.8
665.6	588	49636.2	49636.2
666.1	587.5	48849.7	48849.7
666.6	587	49131.8	49131.8
667.1	586.5	48063.1	48063.1
667.6	586	47918.3	47918.3
668.1	585.5	48365.6	48365.6
668.6	585	48656.3	48656.3
669.1	584.5	48687.6	48687.6
669.6	584	49453.4	49453.4
670.1	583.5	49301.9	49301.9
670.6	583	49052.7	49052.7
671.1	582.5	49151.2	49151.2
671.6	582	49818.1	49818.1
672.1	581.5	48729	48729
672.6	581	49129.1	49129.1
673.1	580.5	50202.7	50202.7
673.6	580	49119.3	49119.3
674.1	579.5	48840	48840
674.6	579	47917.3	47917.3
675.1	578.5	47506.8	47506.8
675.6	578	47068.8	47068.8
676.1	577.5	48034.3	48034.3
676.6	577	46939.2	46939.2
677.1	576.5	47112.8	47112.8
677.6	576	46005.9	46005.9
678.1	575.5	47527	47527
678.6	575	47606.6	47606.6
679.1	574.5	48213.2	48213.2
679.6	574	48590.2	48590.2
680.1	573.5	48318	48318
680.6	573	47883.7	47883.7
681.1	572.5	46901.3	46901.3
681.6	572	47979.4	47979.4
682.1	571.5	49034.2	49034.2
682.6	571	48485.7	48485.7
683.1	570.5	48853.7	48853.7
683.6	570	50775.2	50775.2
684.1	569.5	52068.1	52068.1
684.6	569	51512.3	51512.3
685.1	568.5	51634	51634
685.6	568	51063.6	51063.6
686.1	567.5	50510.3	50510.3
686.6	567	49674.8	49674.8
687.1	566.5	49518	49518
687.6	566	48059.3	48059.3
688.1	565.5	47970.9	47970.9
688.6	565	46510.9	46510.9
689.1	564.5	46885	46885
689.6	564	45683.3	45683.3
690.1	563.5	44831.2	44831.2
690.6	563	45528.2	45528.2
691.1	562.5	45309.7	45309.7
691.6	562	45881.2	45881.2
692.1	561.5	46578.9	46578.9
692.6	561	46080.3	46080.3
693.1	560.5	46282.9	46282.9
693.6	560	45972.4	45972.4
694.1	559.5	45504.2	45504.2
694.6	559	45846.4	45846.4
695.1	558.5	44789.8	44789.8
695.6	558	44264.7	44264.7
696.1	557.5	44859.1	44859.1
696.6	557	45320.9	45320.9
697.1	556.5	44605	44605
697.6	556	44012.9	44012.9
698.1	555.5	43940.9	43940.9
698.6	555	44283.9	44283.9
699.1	554.5	44089.4	44089.4
699.6	554	43402	43402
700.1	553.5	44122.1	44122.1
700.6	553	44531.7	44531.7
701.1	552.5	44473.9	44473.9
701.6	552	45311.2	45311.2
702.1	551.5	44448	44448
702.6	551	43035.9	43035.9
703.1	550.5	43675.2	43675.2
703.6	550	43432.5	43432.5
704.1	549.5	43807.7	43807.7
704.6	549	44008.2	44008.2
705.1	548.5	43016.2	43016.2
705.6	548	43357.1	43357.1
706.1	547.5	44025.9	44025.9
706.6	547	42637.6	42637.6
707.1	546.5	43273	43273
707.6	546	42536.8	42536.8
708.1	545.5	42874.7	42874.7
708.6	545	42687.8	42687.8
709.1	544.5	40949.7	40949.7
709.6	544	39831.3	39831.3
710.1	543.5	38632.5	38632.5
710.6	543	39219.2	39219.2
711.1	542.5	37959.3	37959.3
711.6	542	37998.3	37998.3
712.1	541.5	38492.5	38492.5
712.6	541	37718.9	37718.9
713.1	540.5	37978.5	37978.5
713.6	540	37613.2	37613.2
714.1	539.5	37324.1	37324.1
714.6	539	37330.2	37330.2
715.1	538.5	37046.9	37046.9
715.6	538	37674.5	37674.5
716.1	537.5	39392.3	39392.3
716.6	537	40592.3	40592.3
717.1	536.5	43307.4	43307.4
717.6	536	47955.9	47955.9
718.1	535.5	52444.3	52444.3
718.6	535	61556.9	61556.9
719.1	534.5	75464.7	75464.7
719.6	534	95860.4	95860.4
720.1	533.5	106296	106296
720.6	533	93075.4	93075.4
721.1	532.5	66531.3	66531.3
721.6	532	46723.1	46723.1
722.1	531.5	38709.2	38709.2
722.6	531	35709.1	35709.1
723.1	530.5	34470.7	34470.7
723.6	530	33430	33430
724.1	529.5	33742.6	33742.6
724.6	529	34234.5	34234.5
725.1	528.5	33866.7	33866.7
725.6	528	33603.5	33603.5
726.1	527.5	33340.8	33340.8
726.6	527	33996.7	33996.7
727.1	526.5	34723.4	34723.4
727.6	526	35636.3	35636.3
728.1	525.5	37110.6	37110.6
728.6	525	37854.1	37854.1
729.1	524.5	36518.5	36518.5
729.6	524	36284.4	36284.4
730.1	523.5	34755.9	34755.9
730.6	523	33460.7	33460.7
731.1	522.5	32534.3	32534.3
731.6	522	32867.3	32867.3
732.1	521.5	31122	31122
732.6	521	30389.3	30389.3
733.1	520.5	30815.5	30815.5
733.6	520	30530.9	30530.9
734.1	519.5	30929	30929
734.6	519	30254.1	30254.1
735.1	518.5	29623.1	29623.1
735.6	518	30466.5	30466.5
736.1	517.5	30496.2	30496.2
736.6	517	30671.3	30671.3
737.1	516.5	31263.5	31263.5
737.6	516	30978.9	30978.9
738.1	515.5	30763.1	30763.1
738.6	515	30389.5	30389.5
739.1	514.5	30878.4	30878.4
739.6	514	31254.2	31254.2
740.1	513.5	30355.3	30355.3
740.6	513	30551.1	30551.1
741.1	512.5	30104.1	30104.1
741.6	512	31102.4	31102.4
742.1	511.5	31162.4	31162.4
742.6	511	30443.1	30443.1
743.1	510.5	30183.9	30183.9
743.6	510	31073.6	31073.6
744.1	509.5	30330.1	30330.1
744.6	509	29891.3	29891.3
745.1	508.5	29859.6	29859.6
745.6	508	30263.9	30263.9
746.1	507.5	30657.9	30657.9
746.6	507	30268.7	30268.7
747.1	506.5	30500.5	30500.5
747.6	506	29685.8	29685.8
748.1	505.5	29520.6	29520.6
748.6	505	30215.6	30215.6
749.1	504.5	30360.6	30360.6
749.6	504	29777.4	29777.4
750.1	503.5	30148	30148
750.6	503	30886.1	30886.1
751.1	502.5	30107.4	30107.4
751.6	502	29992.3	29992.3
752.1	501.5	29811.8	29811.8
752.6	501	29767.7	29767.7
753.1	500.5	29573	29573
753.6	500	29419.4	29419.4
754.1	499.5	30025.1	30025.1
754.6	499	29929.3	29929.3
755.1	498.5	29713	29713
755.6	498	29397.9	29397.9
756.1	497.5	28717.9	28717.9
756.6	497	29222.5	29222.5
757.1	496.5	30027.8	30027.8
757.6	496	30224	30224
758.1	495.5	29905	29905
758.6	495	30110.4	30110.4
759.1	494.5	30032.8	30032.8
759.6	494	31506.7	31506.7
760.1	493.5	31807.4	31807.4
760.6	493	31722.4	31722.4
761.1	492.5	31123.4	31123.4
761.6	492	30752.3	30752.3
762.1	491.5	30593.5	30593.5
762.6	491	30844.5	30844.5
763.1	490.5	30503.2	30503.2
763.6	490	30002.9	30002.9
764.1	489.5	31529.4	31529.4
764.6	489	31307.6	31307.6
765.1	488.5	31083.6	31083.6
765.6	488	31268.9	31268.9
766.1	487.5	31459.8	31459.8
766.6	487	30998.8	30998.8
767.1	486.5	31942.9	31942.9
767.6	486	31335.7	31335.7
768.1	485.5	30707	30707
768.6	485	30888.3	30888.3
769.1	484.5	31203.4	31203.4
769.6	484	30865.2	30865.2
770.1	483.5	31347.6	31347.6
770.6	483	31157.3	31157.3
771.1	482.5	31887.3	31887.3
771.6	482	32624.7	32624.7
772.1	481.5	33008.6	33008.6
772.6	481	32661.9	32661.9
773.1	480.5	33237.9	33237.9
773.6	480	32754	32754
774.1	479.5	31259.4	31259.4
774.6	479	30443	30443
775.1	478.5	30650	30650
775.6	478	30450.9	30450.9
776.1	477.5	30759.1	30759.1
776.6	477	31692	31692
777.1	476.5	31486	31486
777.6	476	33286.8	33286.8
778.1	475.5	33441.9	33441.9
778.6	475	33588.7	33588.7
779.1	474.5	30922.9	30922.9
779.6	474	30094.7	30094.7
780.1	473.5	28842.8	28842.8
780.6	473	28466.3	28466.3
781.1	472.5	26482.8	26482.8
781.6	472	26672.9	26672.9
782.1	471.5	25907	25907
782.6	471	26022.9	26022.9
783.1	470.5	26876.2	26876.2
783.6	470	28664	28664
784.1	469.5	32443	32443
784.6	469	36938.2	36938.2
785.1	468.5	41298	41298
785.6	468	44048.7	44048.7
786.1	467.5	42697.3	42697.3
786.6	467	37564.1	37564.1
787.1	466.5	31729.7	31729.7
787.6	466	27928.4	27928.4
788.1	465.5	26011.1	26011.1
788.6	465	24785.2	24785.2
789.1	464.5	26432.8	26432.8
789.6	464	28799.8	28799.8
790.1	463.5	38134.6	38134.6
790.6	463	53346	53346
791.1	462.5	70903.6	70903.6
791.6	462	75523	75523
792.1	461.5	58080.7	58080.7
792.6	461	36417.5	36417.5
793.1	460.5	25531	25531
793.6	460	21753.7	21753.7
794.1	459.5	19738.5	19738.5
794.6	459	18627.4	18627.4
795.1	458.5	18766.1	18766.1
795.6	458	18453.8	18453.8
796.1	457.5	18416.8	18416.8
796.6	457	17908.2	17908.2
797.1	456.5	17335.6	17335.6
797.6	456	16266.6	16266.6
798.1	455.5	16169.7	16169.7
798.6	455	16973	16973
799.1	454.5	18662.3	18662.3
799.6	454	19292.9	19292.9
800.1	453.5	19674.7	19674.7
800.6	453	18847.8	18847.8
801.1	452.5	17995	17995
801.6	452	17344.3	17344.3
802.1	451.5	16521.4	16521.4
802.6	451	15401.7	15401.7
803.1	450.5	14518.9	14518.9
803.6	450	14452.7	14452.7
804.1	449.5	14133.6	14133.6
804.6	449	13945.1	13945.1
805.1	448.5	14302.6	14302.6
805.6	448	13806.7	13806.7
806.1	447.5	13916.2	13916.2
806.6	447	13780.2	13780.2
807.1	446.5	13628	13628
807.6	446	13663.5	13663.5
808.1	445.5	13939.2	13939.2
808.6	445	13841.3	13841.3
809.1	444.5	13592.5	13592.5
809.6	444	14048.8	14048.8
810.1	443.5	13952.7	13952.7
810.6	443	13350.8	13350.8
811.1	442.5	13819.4	13819.4
811.6	442	14417.9	14417.9
812.1	441.5	14364.7	14364.7
812.6	441	13989.2	13989.2
813.1	440.5	13209.2	13209.2
813.6	440	13296.5	13296.5
814.1	439.5	13320	13320
814.6	439	13233.9	13233.9
815.1	438.5	13231.5	13231.5
815.6	438	13408	13408
816.1	437.5	13479.6	13479.6
816.6	437	13859.5	13859.5
817.1	436.5	13774.8	13774.8
817.6	436	13311.2	13311.2
818.1	435.5	13360.3	13360.3
818.6	435	13181.3	13181.3
819.1	434.5	13487.4	13487.4
819.6	434	13118.7	13118.7
820.1	433.5	13522	13522
820.6	433	13288.2	13288.2
821.1	432.5	13687.5	13687.5
821.6	432	13368.7	13368.7
822.1	431.5	13449.5	13449.5
822.6	431	12984.4	12984.4
823.1	430.5	13075.1	13075.1
823.6	430	12913.7	12913.7
824.1	429.5	13388.6	13388.6
824.6	429	13108.5	13108.5
825.1	428.5	12445.6	12445.6
825.6	428	12613.1	12613.1
826.1	427.5	13540.9	13540.9
826.6	427	13396.4	13396.4
827.1	426.5	13273.4	13273.4
827.6	426	13187.1	13187.1
828.1	425.5	13078.7	13078.7
828.6	425	12995.1	12995.1
829.1	424.5	13308.5	13308.5
829.6	424	13017.8	13017.8
830.1	423.5	12788.1	12788.1
830.6	423	12724.3	12724.3
831.1	422.5	13014.3	13014.3
831.6	422	13469	13469
832.1	421.5	13008.2	13008.2
832.6	421	13528.5	13528.5
833.1	420.5	13578.1	13578.1
833.6	420	13566.2	13566.2
834.1	419.5	13131.5	13131.5
834.6	419	12968.8	12968.8
835.1	418.5	13530.3	13530.3
835.6	418	13768.9	13768.9
836.1	417.5	13721.9	13721.9
836.6	417	12880.6	12880.6
837.1	416.5	12845.2	12845.2
837.6	416	13426.5	13426.5
838.1	415.5	13448	13448
838.6	415	13474.2	13474.2
839.1	414.5	13079.3	13079.3
839.6	414	13331.6	13331.6
840.1	413.5	13900.2	13900.2
840.6	413	13358.2	13358.2
841.1	412.5	12811.1	12811.1
841.6	412	12955.4	12955.4
842.1	411.5	12904.3	12904.3
842.6	411	13221.5	13221.5
843.1	410.5	12690.6	12690.6
843.6	410	13081.2	13081.2
844.1	409.5	13077.8	13077.8
844.6	409	12644.1	12644.1
845.1	408.5	12868.1	12868.1
845.6	408	12909.3	12909.3
846.1	407.5	13464.8	13464.8
846.6	407	13479.3	13479.3
847.1	406.5	13613	13613
847.6	406	13057.4	13057.4
848.1	405.5	12335.7	12335.7
848.6	405	12576	12576
849.1	404.5	12745.3	12745.3
849.6	404	13246.4	13246.4
850.1	403.5	13594.3	13594.3
850.6	403	13631.2	13631.2
851.1	402.5	12786.5	12786.5
851.6	402	12804.8	12804.8
852.1	401.5	12886.9	12886.9
852.6	401	13194.5	13194.5
853.1	400.5	13466.9	13466.9
853.6	400	12920.9	12920.9
854.1	399.5	12445.5	12445.5
854.6	399	12803.1	12803.1
855.1	398.5	13343.2	13343.2
855.6	398	12048.9	12048.9
856.1	397.5	12769.3	12769.3
856.6	397	13113	13113
857.1	396.5	13197.6	13197.6
857.6	396	12727.6	12727.6
858.1	395.5	12770.5	12770.5
858.6	395	13081.5	13081.5
859.1	394.5	13410.8	13410.8
859.6	394	12950.6	12950.6
860.1	393.5	12665.7	12665.7
860.6	393	13438.8	13438.8
861.1	392.5	12821.3	12821.3
861.6	392	12680	12680
862.1	391.5	12702.6	12702.6
862.6	391	12759.3	12759.3
863.1	390.5	12161	12161
863.6	390	12855.9	12855.9
864.1	389.5	13095.6	13095.6
864.6	389	12439.8	12439.8
865.1	388.5	12664.6	12664.6
865.6	388	12800.8	12800.8
866.1	387.5	12867.7	12867.7
866.6	387	12267.1	12267.1
867.1	386.5	12718.6	12718.6
867.6	386	12955.7	12955.7
868.1	385.5	12953.2	12953.2
868.6	385	12719.5	12719.5
869.1	384.5	12938.9	12938.9
869.6	384	12905.5	12905.5
870.1	383.5	12514.1	12514.1
870.6	383	12619.5	12619.5
871.1	382.5	12865.2	12865.2
871.6	382	12534.8	12534.8
872.1	381.5	12322.9	12322.9
872.6	381	12045.9	12045.9
873.1	380.5	12697.2	12697.2
873.6	380	13215.5	13215.5
874.1	379.5	12574.3	12574.3
874.6	379	12574	12574
875.1	378.5	12325.9	12325.9
875.6	378	13109	13109
876.1	377.5	11997.7	11997.7
876.6	377	12553.5	12553.5
877.1	376.5	12342.3	12342.3
877.6	376	12116.1	12116.1
878.1	375.5	13181.8	13181.8
878.6	375	12716.8	12716.8
879.1	374.5	12467.2	12467.2
879.6	374	13033.3	13033.3
880.1	373.5	12797	12797
880.6	373	12951.3	12951.3
881.1	372.5	12888	12888
881.6	372	12666.4	12666.4
882.1	371.5	12964.3	12964.3
882.6	371	12836.4	12836.4
883.1	370.5	12600.8	12600.8
883.6	370	12612.8	12612.8
884.1	369.5	12813.3	12813.3
884.6	369	12462.9	12462.9
885.1	368.5	12104.9	12104.9
885.6	368	12741.8	12741.8
886.1	367.5	12951.1	12951.1
886.6	367	13088.3	13088.3
887.1	366.5	12597.8	12597.8
887.6	366	12939.5	12939.5
888.1	365.5	12979.6	12979.6
888.6	365	12607.3	12607.3
889.1	364.5	13302.1	13302.1
889.6	364	12760	12760
890.1	363.5	12966.3	12966.3
890.6	363	13165.6	13165.6
891.1	362.5	13420.3	13420.3
891.6	362	12558.8	12558.8
892.1	361.5	13477.8	13477.8
892.6	361	13203.5	13203.5
893.1	360.5	12823.5	12823.5
893.6	360	13234.4	13234.4
894.1	359.5	13093.5	13093.5
894.6	359	13131.9	13131.9
895.1	358.5	12745.4	12745.4
895.6	358	12658.2	12658.2
896.1	357.5	12578.8	12578.8
896.6	357	13025.2	13025.2
897.1	356.5	12846.5	12846.5
897.6	356	13074.5	13074.5
898.1	355.5	12694.3	12694.3
898.6	355	12956.3	12956.3
899.1	354.5	13342.3	13342.3
899.6	354	13875.4	13875.4
900.1	353.5	13509.2	13509.2
900.6	353	13154.8	13154.8
901.1	352.5	13418.7	13418.7
901.6	352	13245.6	13245.6
902.1	351.5	13249.3	13249.3
902.6	351	12489.7	12489.7
903.1	350.5	13304.5	13304.5
903.6	350	13646.6	13646.6
904.1	349.5	13132.8	13132.8
904.6	349	13522.2	13522.2
905.1	348.5	13423.3	13423.3
905.6	348	13253.5	13253.5
906.1	347.5	13151.5	13151.5
906.6	347	13238.2	13238.2
907.1	346.5	13309	13309
907.6	346	12832.3	12832.3
908.1	345.5	12933.9	12933.9
908.6	345	12896.3	12896.3
909.1	344.5	13037.9	13037.9
909.6	344	13201.3	13201.3
910.1	343.5	12643.7	12643.7
910.6	343	12549.3	12549.3
911.1	342.5	13318.9	13318.9
911.6	342	12769.3	12769.3
912.1	341.5	12726.8	12726.8
912.6	341	13168.1	13168.1
913.1	340.5	13236	13236
913.6	340	13182.6	13182.6
914.1	339.5	13233.9	13233.9
914.6	339	13154.6	13154.6
915.1	338.5	13497.5	13497.5
915.6	338	13093.9	13093.9
916.1	337.5	12555.8	12555.8
916.6	337	12878.4	12878.4
917.1	336.5	12506.7	12506.7
917.6	336	12919.8	12919.8
918.1	335.5	12797.6	12797.6
918.6	335	13232.4	13232.4
919.1	334.5	12824.2	12824.2
919.6	334	13309.7	13309.7
920.1	333.5	13284.3	13284.3
920.6	333	13368.1	13368.1
921.1	332.5	12788.8	12788.8
921.6	332	13316	13316
922.1	331.5	12869.9	12869.9
922.6	331	12665.5	12665.5
923.1	330.5	12660.5	12660.5
923.6	330	12671.4	12671.4
924.1	329.5	12728	12728
924.6	329	12751.4	12751.4
925.1	328.5	13291.7	13291.7
925.6	328	13085.2	13085.2
926.1	327.5	12901.4	12901.4
926.6	327	13233.6	13233.6
927.1	326.5	13050.8	13050.8
927.6	326	13692.4	13692.4
928.1	325.5	13404.3	13404.3
928.6	325	12746.7	12746.7
929.1	324.5	12881.1	12881.1
929.6	324	13994.8	13994.8
930.1	323.5	13437.3	13437.3
930.6	323	13258.6	13258.6
931.1	322.5	13550.3	13550.3
931.6	322	13179.1	13179.1
932.1	321.5	12823	12823
932.6	321	13480.9	13480.9
933.1	320.5	13692.9	13692.9
933.6	320	13676.6	13676.6
934.1	319.5	13648.9	13648.9
934.6	319	13873.4	13873.4
935.1	318.5	13464.2	13464.2
935.6	318	13327.7	13327.7
936.1	317.5	13428.7	13428.7
936.6	317	13576.9	13576.9
937.1	316.5	13629.3	13629.3
937.6	316	13059	13059
938.1	315.5	14006	14006
938.6	315	13220.1	13220.1
939.1	314.5	12896.1	12896.1
939.6	314	13187.5	13187.5
940.1	313.5	13177.9	13177.9
940.6	313	13592.4	13592.4
941.1	312.5	13198.1	13198.1
941.6	312	13326.2	13326.2
942.1	311.5	13279.8	13279.8
942.6	311	13357.5	13357.5
943.1	310.5	13065.6	13065.6
943.6	310	13458.3	13458.3
944.1	309.5	12506.7	12506.7
944.6	309	12308.8	12308.8
945.1	308.5	11718.2	11718.2
945.6	308	12586.9	12586.9
946.1	307.5	12968.7	12968.7
946.6	307	12569.7	12569.7
947.1	306.5	12136.8	12136.8
947.6	306	12307.3	12307.3
948.1	305.5	11967.7	11967.7
948.6	305	12009	12009
949.1	304.5	11841.2	11841.2
949.6	304	11493	11493
950.1	303.5	11583.4	11583.4
950.6	303	11680.6	11680.6
951.1	302.5	11330	11330
951.6	302	11595.7	11595.7
952.1	301.5	12287.6	12287.6
952.6	301	12502.7	12502.7
953.1	300.5	12191.7	12191.7
953.6	300	11667.4	11667.4
954.1	299.5	11089.2	11089.2
954.6	299	10957	10957
955.1	298.5	10418.1	10418.1
955.6	298	10569.6	10569.6
956.1	297.5	10276.6	10276.6
956.6	297	10516	10516
957.1	296.5	10751.5	10751.5
957.6	296	11316.6	11316.6
958.1	295.5	12466.6	12466.6
958.6	295	14284.8	14284.8
959.1	294.5	16711.6	16711.6
959.6	294	18624.6	18624.6
960.1	293.5	18415.1	18415.1
960.6	293	15400.8	15400.8
961.1	292.5	13224.5	13224.5
961.6	292	12821	12821
962.1	291.5	12923	12923
962.6	291	14898.4	14898.4
963.1	290.5	18078.7	18078.7
963.6	290	21280.4	21280.4
964.1	289.5	24556.2	24556.2
964.6	289	26286.4	26286.4
965.1	288.5	26904.2	26904.2
965.6	288	27186	27186
966.1	287.5	28570.2	28570.2
966.6	287	27615.1	27615.1
967.1	286.5	21604.8	21604.8
967.6	286	16000.9	16000.9
968.1	285.5	13695.9	13695.9
968.6	285	11972.8	11972.8
969.1	284.5	10704.8	10704.8
969.6	284	9794.89	9794.89
970.1	283.5	9291.9	9291.9
970.6	283	8705.67	8705.67
971.1	282.5	8441.62	8441.62
971.6	282	8610.66	8610.66
972.1	281.5	8757.18	8757.18
972.6	281	9043.95	9043.95
973.1	280.5	9011.06	9011.06
973.6	280	10079.7	10079.7
974.1	279.5	9523.59	9523.59
974.6	279	10057.7	10057.7
975.1	278.5	9534.93	9534.93
975.6	278	9336.27	9336.27
976.1	277.5	9194.02	9194.02
976.6	277	8708.66	8708.66
977.1	276.5	8322.81	8322.81
977.6	276	7496.98	7496.98
978.1	275.5	7446.73	7446.73
978.6	275	7378.89	7378.89
979.1	274.5	7464.89	7464.89
979.6	274	7442.65	7442.65
980.1	273.5	7278.24	7278.24
980.6	273	7351.8	7351.8
981.1	272.5	7475.78	7475.78
981.6	272	7293.05	7293.05
982.1	271.5	7541.14	7541.14
982.6	271	7481.4	7481.4
983.1	270.5	6958.28	6958.28
983.6	270	6913.89	6913.89
984.1	269.5	7274.45	7274.45
984.6	269	7409.57	7409.57
985.1	268.5	7139.91	7139.91
985.6	268	7142.92	7142.92
986.1	267.5	7146.38	7146.38
986.6	267	7244.11	7244.11
987.1	266.5	7031.84	7031.84
987.6	266	7044.39	7044.39
988.1	265.5	7652.57	7652.57
988.6	265	7069.15	7069.15
989.1	264.5	6850.52	6850.52
989.6	264	6783.68	6783.68
990.1	263.5	6486.69	6486.69
990.6	263	6921.1	6921.1
991.1	262.5	7013.56	7013.56
991.6	262	7167.53	7167.53
992.1	261.5	7324.15	7324.15
992.6	261	6615.87	6615.87
993.1	260.5	6928.06	6928.06
993.6	260	7047.12	7047.12
994.1	259.5	6763.94	6763.94
994.6	259	6777.24	6777.24
995.1	258.5	6870.41	6870.41
995.6	258	7060.37	7060.37
996.1	257.5	6946.25	6946.25
996.6	257	6565.97	6565.97
997.1	256.5	6447.14	6447.14
997.6	256	7300.29	7300.29
998.1	255.5	7104.37	7104.37
998.6	255	6994.14	6994.14
999.1	254.5	6807.71	6807.71
999.6	254	6672.69	6672.69
1000.1	253.5	6983.84	6983.84
1000.6	253	7021.9	7021.9
1001.1	252.5	6550.86	6550.86
1001.6	252	6638.95	6638.95
1002.1	251.5	6729.8	6729.8
1002.6	251	6900.42	6900.42
1003.1	250.5	6973.63	6973.63
1003.6	250	6763.15	6763.15
1004.1	249.5	6784.82	6784.82
1004.6	249	6885.18	6885.18
1005.1	248.5	7019.55	7019.55
1005.6	248	6898.46	6898.46
1006.1	247.5	6767.71	6767.71
1006.6	247	7014.05	7014.05
1007.1	246.5	7169.91	7169.91
1007.6	246	6928.86	6928.86
1008.1	245.5	6831.09	6831.09
1008.6	245	6919.42	6919.42
1009.1	244.5	6968.49	6968.49
1009.6	244	7229.1	7229.1
1010.1	243.5	7058.88	7058.88
1010.6	243	7268.7	7268.7
1011.1	242.5	7045.85	7045.85
1011.6	242	7127.12	7127.12
1012.1	241.5	6836.13	6836.13
1012.6	241	6717.31	6717.31
1013.1	240.5	6668.76	6668.76
1013.6	240	7100.33	7100.33
1014.1	239.5	7392.46	7392.46
1014.6	239	7227.46	7227.46
1015.1	238.5	6986.89	6986.89
1015.6	238	6719.7	6719.7
1016.1	237.5	6822.73	6822.73
1016.6	237	7096.24	7096.24
1017.1	236.5	7390.4	7390.4
1017.6	236	6803.96	6803.96
1018.1	235.5	6714.76	6714.76
1018.6	235	7065.43	7065.43
1019.1	234.5	6674.91	6674.91
1019.6	234	6773.17	6773.17
1020.1	233.5	6504.01	6504.01
1020.6	233	6675.12	6675.12
1021.1	232.5	6689.91	6689.91
1021.6	232	6504.44	6504.44
1022.1	231.5	6711.35	6711.35
1022.6	231	6959.55	6959.55
1023.1	230.5	7299.96	7299.96
1023.6	230	7912.65	7912.65
1024.1	229.5	8185.11	8185.11
1024.6	229	7582.48	7582.48
1025.1	228.5	7720.73	7720.73
1025.6	228	6912.39	6912.39
1026.1	227.5	6799.03	6799.03
1026.6	227	6727.97	6727.97
1027.1	226.5	6523.62	6523.62
1027.6	226	6334.99	6334.99
1028.1	225.5	6358.93	6358.93
1028.6	225	6750.86	6750.86
1029.1	224.5	6170.91	6170.91
1029.6	224	6181.13	6181.13
1030.1	223.5	6662.91	6662.91
1030.6	223	6406.53	6406.53
1031.1	222.5	6407.5	6407.5
1031.6	222	6764.2	6764.2
1032.1	221.5	6544.88	6544.88
1032.6	221	6206.58	6206.58
1033.1	220.5	6498.37	6498.37
1033.6	220	6526.89	6526.89
1034.1	219.5	6574.44	6574.44
1034.6	219	6617.78	6617.78
1035.1	218.5	6980.16	6980.16
1035.6	218	6772.92	6772.92
1036.1	217.5	6822.91	6822.91
1036.6	217	6586.79	6586.79
1037.1	216.5	6542.82	6542.82
1037.6	216	6248.49	6248.49
1038.1	215.5	6359.19	6359.19
1038.6	215	6144.07	6144.07
1039.1	214.5	6392.96	6392.96
1039.6	214	6494.85	6494.85
1040.1	213.5	6614.37	6614.37
1040.6	213	6187.47	6187.47
1041.1	212.5	6768.92	6768.92
1041.6	212	6332.4	6332.4
1042.1	211.5	6187.57	6187.57
1042.6	211	6483.08	6483.08
1043.1	210.5	6645.36	6645.36
1043.6	210	6332.77	6332.77
1044.1	209.5	6371.72	6371.72
1044.6	209	6058.2	6058.2
1045.1	208.5	6435.47	6435.47
1045.6	208	6392.06	6392.06
1046.1	207.5	6610.06	6610.06
1046.6	207	6392.53	6392.53
1047.1	206.5	6165.36	6165.36
1047.6	206	6483.31	6483.31
1048.1	205.5	6589.43	6589.43
1048.6	205	6193.46	6193.46
1049.1	204.5	6207.45	6207.45
1049.6	204	6191.3	6191.3
1050.1	203.5	7097.4	7097.4
1050.6	203	6719.01	6719.01
1051.1	202.5	6285.61	6285.61
1051.6	202	6419.54	6419.54
1052.1	201.5	6173.91	6173.91
1052.6	201	6567.3	6567.3
1053.1	200.5	6627.29	6627.29
1053.6	200	6609.39	6609.39
1054.1	199.5	6568.49	6568.49
1054.6	199	6628.07	6628.07
1055.1	198.5	6505.05	6505.05
1055.6	198	6446.34	6446.34
1056.1	197.5	6751.18	6751.18
1056.6	197	6752.36	6752.36
1057.1	196.5	6572.19	6572.19
1057.6	196	6435.02	6435.02
1058.1	195.5	6706.49	6706.49
1058.6	195	6697.58	6697.58
1059.1	194.5	6550.75	6550.75
1059.6	194	6158.49	6158.49
1060.1	193.5	6612.39	6612.39
1060.6	193	6644.4	6644.4
1061.1	192.5	6596.45	6596.45
1061.6	192	6281.64	6281.64
1062.1	191.5	6699.27	6699.27
1062.6	191	6571.9	6571.9
1063.1	190.5	6556.49	6556.49
1063.6	190	6471.02	6471.02
1064.1	189.5	6387.92	6387.92
1064.6	189	6377.98	6377.98
1065.1	188.5	6572.82	6572.82
1065.6	188	6565.58	6565.58
1066.1	187.5	6494.1	6494.1
1066.6	187	6355.89	6355.89
1067.1	186.5	6515.69	6515.69
1067.6	186	6521.3	6521.3
1068.1	185.5	6436.15	6436.15
1068.6	185	6435.12	6435.12
1069.1	184.5	6310.95	6310.95
1069.6	184	6455.96	6455.96
1070.1	183.5	6339.07	6339.07
1070.6	183	6128.2	6128.2
1071.1	182.5	6570.37	6570.37
1071.6	182	6501.75	6501.75
1072.1	181.5	6245.97	6245.97
1072.6	181	6222.25	6222.25
1073.1	180.5	6272.77	6272.77
1073.6	180	6374.48	6374.48
1074.1	179.5	6534.34	6534.34
1074.6	179	6314.39	6314.39
1075.1	178.5	6818.4	6818.4
1075.6	178	6515.49	6515.49
1076.1	177.5	6341.28	6341.28
1076.6	177	6524.51	6524.51
1077.1	176.5	6248.34	6248.34
1077.6	176	6633.42	6633.42
1078.1	175.5	6626.65	6626.65
1078.6	175	6143.01	6143.01
1079.1	174.5	6345.26	6345.26
1079.6	174	6074.98	6074.98
1080.1	173.5	6244.93	6244.93
1080.6	173	6379.91	6379.91
1081.1	172.5	6399.79	6399.79
1081.6	172	6308.53	6308.53
1082.1	171.5	6590.39	6590.39
1082.6	171	6484.69	6484.69
1083.1	170.5	6700.65	6700.65
1083.6	170	6468.97	6468.97
1084.1	169.5	6703.3	6703.3
1084.6	169	6190.21	6190.21
1085.1	168.5	6121.75	6121.75
1085.6	168	6228.03	6228.03
1086.1	167.5	6354.47	6354.47
1086.6	167	6106.84	6106.84
1087.1	166.5	6579.11	6579.11
1087.6	166	6548.21	6548.21
1088.1	165.5	6449.07	6449.07
1088.6	165	6227.96	6227.96
1089.1	164.5	6676.45	6676.45
1089.6	164	6661.55	6661.55
1090.1	163.5	6342.11	6342.11
1090.6	163	6577.33	6577.33
1091.1	162.5	6372.64	6372.64
1091.6	162	6236.88	6236.88
1092.1	161.5	6612.84	6612.84
1092.6	161	6618.15	6618.15
1093.1	160.5	6440.68	6440.68
1093.6	160	6437.09	6437.09
1094.1	159.5	6108.96	6108.96
1094.6	159	6621.52	6621.52
1095.1	158.5	6248.02	6248.02
1095.6	158	6345.39	6345.39
1096.1	157.5	6364.08	6364.08
1096.6	157	6270.86	6270.86
1097.1	156.5	6427.43	6427.43
1097.6	156	6251.71	6251.71
1098.1	155.5	6244.7	6244.7
1098.6	155	6781.21	6781.21
1099.1	154.5	6121.57	6121.57
1099.6	154	6139.59	6139.59
1100.1	153.5	6871.69	6871.69
1100.6	153	6246.78	6246.78
1101.1	152.5	5962.52	5962.52
1101.6	152	5923.85	5923.85
1102.1	151.5	6051.44	6051.44
1102.6	151	6432.19	6432.19
1103.1	150.5	6032.62	6032.62
1103.6	150	6180.36	6180.36
1104.1	149.5	6439.22	6439.22
1104.6	149	6400.21	6400.21
1105.1	148.5	6349.03	6349.03
1105.6	148	6616.3	6616.3
1106.1	147.5	6582.05	6582.05
1106.6	147	6429.78	6429.78
1107.1	146.5	6249.89	6249.89
1107.6	146	6521.97	6521.97
1108.1	145.5	6414.79	6414.79
1108.6	145	6531.21	6531.21
1109.1	144.5	6438.54	6438.54
1109.6	144	6168.64	6168.64
1110.1	143.5	6407.87	6407.87
1110.6	143	6681.45	6681.45
1111.1	142.5	6366.52	6366.52
1111.6	142	6710.72	6710.72
1112.1	141.5	6780.73	6780.73
1112.6	141	6329.03	6329.03
1113.1	140.5	6475.56	6475.56
1113.6	140	6125.95	6125.95
1114.1	139.5	6221.62	6221.62
1114.6	139	6597.12	6597.12
1115.1	138.5	6350.13	6350.13
1115.6	138	6311.66	6311.66
1116.1	137.5	6319.92	6319.92
1116.6	137	6252.91	6252.91
1117.1	136.5	6605.81	6605.81
1117.6	136	6461.96	6461.96
1118.1	135.5	6532.16	6532.16
1118.6	135	6240.3	6240.3
1119.1	134.5	6029.58	6029.58
1119.6	134	6267.93	6267.93
1120.1	133.5	6401.06	6401.06
1120.6	133	6750.7	6750.7
1121.1	132.5	6752	6752
1121.6	132	6403.85	6403.85
1122.1	131.5	6351.03	6351.03
1122.6	131	6242.22	6242.22
1123.1	130.5	6113.48	6113.48
1123.6	130	6210.13	6210.13
1124.1	129.5	6255.07	6255.07
1124.6	129	6376.34	6376.34
1125.1	128.5	6622.66	6622.66
1125.6	128	6736.44	6736.44
1126.1	127.5	6284.89	6284.89
1126.6	127	6608.14	6608.14
1127.1	126.5	6315.41	6315.41
1127.6	126	6490.16	6490.16
1128.1	125.5	6163.94	6163.94
1128.6	125	6071.22	6071.22
1129.1	124.5	6458.48	6458.48
1129.6	124	6506.05	6506.05
1130.1	123.5	6561.21	6561.21
1130.6	123	6489.35	6489.35
1131.1	122.5	6261.94	6261.94
1131.6	122	6078.35	6078.35
1132.1	121.5	6343.43	6343.43
1132.6	121	6046.76	6046.76
1133.1	120.5	6212.68	6212.68
1133.6	120	6608.69	6608.69
1134.1	119.5	6523.46	6523.46
1134.6	119	6718.54	6718.54
1135.1	118.5	6851.59	6851.59
1135.6	118	6659.1	6659.1
1136.1	117.5	6504.46	6504.46
1136.6	117	6519.19	6519.19
1137.1	116.5	6515.03	6515.03
1137.6	116	6717.17	6717.17
1138.1	115.5	6686.49	6686.49
1138.6	115	6674.95	6674.95
1139.1	114.5	6396.85	6396.85
1139.6	114	6302.84	6302.84
1140.1	113.5	6411.06	6411.06
1140.6	113	6506.02	6506.02
1141.1	112.5	6618.31	6618.31
1141.6	112	6766.31	6766.31
1142.1	111.5	6529.87	6529.87
1142.6	111	6313.36	6313.36
1143.1	110.5	6446	6446
1143.6	110	6878.73	6878.73
1144.1	109.5	6993.6	6993.6
1144.6	109	6676.83	6676.83
1145.1	108.5	6643.39	6643.39
1145.6	108	6653.44	6653.44
1146.1	107.5	6032.44	6032.44
1146.6	107	5947.31	5947.31
1147.1	106.5	6432.65	6432.65
1147.6	106	6391.89	6391.89
1148.1	105.5	5964.49	5964.49
1148.6	105	6550.28	6550.28
1149.1	104.5	6601.44	6601.44
1149.6	104	6619.9	6619.9
1150.1	103.5	6605.47	6605.47
1150.6	103	6663.52	6663.52
1151.1	102.5	6343.46	6343.46
1151.6	102	6222.27	6222.27
1152.1	101.5	6199.72	6199.72
1152.6	101	6229.9	6229.9
1153.1	100.5	6403.19	6403.19
1153.6	100	6652.77	6652.77
1154.1	99.5	6634.63	6634.63
1154.6	99	6448.56	6448.56
1155.1	98.5	6624.34	6624.34
1155.6	98	6360.48	6360.48
1156.1	97.5	6443.79	6443.79
1156.6	97	6105.09	6105.09
1157.1	96.5	6364.81	6364.81
1157.6	96	6341.96	6341.96
1158.1	95.5	6384.83	6384.83
1158.6	95	6385.87	6385.87
1159.1	94.5	6266	6266
1159.6	94	6587.16	6587.16
1160.1	93.5	6152.04	6152.04
1160.6	93	6488.19	6488.19
1161.1	92.5	6323.51	6323.51
1161.6	92	6668.49	6668.49
1162.1	91.5	6548.81	6548.81
1162.6	91	6355.07	6355.07
1163.1	90.5	6710.29	6710.29
1163.6	90	6207.84	6207.84
1164.1	89.5	6717.07	6717.07
1164.6	89	6673.87	6673.87
1165.1	88.5	6433	6433
1165.6	88	6529.68	6529.68
1166.1	87.5	6313.5	6313.5
1166.6	87	6370.7	6370.7
1167.1	86.5	6554.87	6554.87
1167.6	86	6395.13	6395.13
1168.1	85.5	6870.37	6870.37
1168.6	85	6577.47	6577.47
1169.1	84.5	6443.76	6443.76
1169.6	84	6462.78	6462.78
1170.1	83.5	6420.62	6420.62
1170.6	83	6617.45	6617.45
1171.1	82.5	6482.49	6482.49
1171.6	82	6557.46	6557.46
1172.1	81.5	6477.35	6477.35
1172.6	81	6226.4	6226.4
1173.1	80.5	6367.73	6367.73
1173.6	80	6457.45	6457.45
1174.1	79.5	6054.81	6054.81
1174.6	79	6512.67	6512.67
1175.1	78.5	6241.08	6241.08
1175.6	78	6466.67	6466.67
1176.1	77.5	6663.75	6663.75
1176.6	77	6091.43	6091.43
1177.1	76.5	6070.86	6070.86
1177.6	76	6026.94	6026.94
1178.1	75.5	5893.51	5893.51
1178.6	75	5898.45	5898.45
1179.1	74.5	6219.34	6219.34
1179.6	74	6029.59	6029.59
1180.1	73.5	5734.29	5734.29
1180.6	73	6325.18	6325.18
1181.1	72.5	6028.88	6028.88
1181.6	72	5777.3	5777.3
1182.1	71.5	6386.5	6386.5
1182.6	71	6207.72	6207.72
1183.1	70.5	6182.14	6182.14
1183.6	70	6065.94	6065.94
1184.1	69.5	6137.83	6137.83
1184.6	69	6494.46	6494.46
1185.1	68.5	6524.43	6524.43
1185.6	68	6946.65	6946.65
1186.1	67.5	7538.61	7538.61
1186.6	67	8483.72	8483.72
1187.1	66.5	8633.79	8633.79
1187.6	66	8804.73	8804.73
1188.1	65.5	8442.73	8442.73
1188.6	65	8083.11	8083.11
1189.1	64.5	7209.83	7209.83
1189.6	64	6954.57	6954.57
1190.1	63.5	6733.11	6733.11
1190.6	63	6222.88	6222.88
1191.1	62.5	5808.4	5808.4
1191.6	62	5901.33	5901.33
1192.1	61.5	5794.28	5794.28
1192.6	61	6146.75	6146.75
1193.1	60.5	6248.46	6248.46
1193.6	60	5846.4	5846.4
1194.1	59.5	6159.88	6159.88
1194.6	59	6215.9	6215.9
1195.1	58.5	6790.22	6790.22
1195.6	58	6811.04	6811.04
1196.1	57.5	6507.43	6507.43
1196.6	57	6630.65	6630.65
1197.1	56.5	6468.78	6468.78
1197.6	56	6680.56	6680.56
1198.1	55.5	6464.15	6464.15
1198.6	55	6632.47	6632.47
1199.1	54.5	6327.4	6327.4
1199.6	54	6045.68	6045.68
1200.1	53.5	6283.95	6283.95
1200.6	53	6017.05	6017.05
1201.1	52.5	5386.26	5386.26
1201.6	52	5318.34	5318.34
1202.1	51.5	4958.58	4958.58
1202.6	51	5002.03	5002.03
1203.1	50.5	4747.64	4747.64
1203.6	50	4800.15	4800.15
1204.1	49.5	5040.4	5040.4
1204.6	49	4755.07	4755.07
1205.1	48.5	4745.72	4745.72
1205.6	48	4760.68	4760.68
1206.1	47.5	4976.21	4976.21
1206.6	47	5103.02	5103.02
1207.1	46.5	5256.79	5256.79
1207.6	46	4971.18	4971.18
1208.1	45.5	5105.46	5105.46
1208.6	45	5103.1	5103.1
1209.1	44.5	5115.39	5115.39
1209.6	44	5576.11	5576.11
1210.1	43.5	6316.59	6316.59
1210.6	43	7204.59	7204.59
1211.1	42.5	8116.57	8116.57
1211.6	42	9842.15	9842.15
1212.1	41.5	11403.9	11403.9
1212.6	41	12082.2	12082.2
1213.1	40.5	11626.2	11626.2
1213.6	40	9342.56	9342.56
1214.1	39.5	7539.98	7539.98
1214.6	39	6201.44	6201.44
1215.1	38.5	5397.89	5397.89
1215.6	38	5274.38	5274.38
1216.1	37.5	5136.33	5136.33
1216.6	37	4796.99	4796.99
1217.1	36.5	5031.8	5031.8
1217.6	36	4641.23	4641.23
1218.1	35.5	4491.77	4491.77
1218.6	35	4331.72	4331.72
1219.1	34.5	3747.92	3747.92
1219.6	34	3928.33	3928.33
1220.1	33.5	4003.16	4003.16
1220.6	33	3879.81	3879.81
1221.1	32.5	4142.04	4142.04
1221.6	32	4216.76	4216.76
1222.1	31.5	3938.55	3938.55
1222.6	31	3379.55	3379.55
1223.1	30.5	3597.32	3597.32
1223.6	30	3522.97	3522.97
1224.1	29.5	3202.07	3202.07
1224.6	29	3478.64	3478.64
1225.1	28.5	3467.53	3467.53
1225.6	28	3760.39	3760.39
1226.1	27.5	4400.81	4400.81
1226.6	27	4654.76	4654.76
1227.1	26.5	5473.4	5473.4
1227.6	26	5374.77	5374.77
1228.1	25.5	5315.19	5315.19
1228.6	25	4967.79	4967.79
1229.1	24.5	4427.38	4427.38
1229.6	24	4060.38	4060.38
1230.1	23.5	3705.82	3705.82
1230.6	23	3607.99	3607.99
1231.1	22.5	2936.41	2936.41
1231.6	22	2872.18	2872.18
1232.1	21.5	2807.01	2807.01
1232.6	21	2472.32	2472.32
1233.1	20.5	2672.44	2672.44
1233.6	20	2716.21	2716.21
1234.1	19.5	2541.26	2541.26
1234.6	19	2385.67	2385.67
1235.1	18.5	2459.28	2459.28
1235.6	18	2483.49	2483.49
1236.1	17.5	2392.89	2392.89
1236.6	17	2444.01	2444.01
1237.1	16.5	2569.31	2569.31
1237.6	16	2699.09	2699.09
1238.1	15.5	2788.38	2788.38
1238.6	15	2290.75	2290.75
1239.1	14.5	2329.11	2329.11
1239.6	14	2522.43	2522.43
1240.1	13.5	2397.83	2397.83
1240.6	13	2179.38	2179.38
1241.1	12.5	2491.28	2491.28
1241.6	12	2637.09	2637.09
1242.1	11.5	2985.04	2985.04
1242.6	11	3027.62	3027.62
1243.1	10.5	3264.54	3264.54
1243.6	10	2882.37	2882.37
